Output file for program Grate_NESI
there are twenty-four columns in the output.  they are:
column no. 1:  X coordinates in meters
column no. 2:  Bed elevation in meters
column no. 3:  Flow depth in meters
column no. 4:  Channel width (m)
column no. 5:  Channel theta (deg)
column no. 6:  Number of channels
column no. 7:  Geometric mean grain size (mm) below the surface layer
column no. 8:  Geometric mean grain size (mm) of the surface layer
column no. 9:  Standard deviation at the same position.
column no. 10:  Sediment transport rate (m2/s)
column no. 11:  Sand percentage (Fs)
column no. 12-24: Surface grain size matrix (12 classes)
qwTweak = 1
qsTweak = 1
substrDial = 0
feedQw = 1
feedQs = 1
HmaxTweak = 1
randAbr = 1e-05


Count:  0
0	397.97	1.5	11.7	40	1	0	4.96296	2.4484	0	0.185185	0.0740741	0.0462963	0.0277778	0.037037	0.0277778	0.0185185	0.0277778	0.0925926	0.148148	0.12963	0.212963	0.138889	0.0185185
100	395.35	1.5	11.71	40	1	0	4.96296	2.4484	0	0.185185	0.0740741	0.0462963	0.0277778	0.037037	0.0277778	0.0185185	0.0277778	0.0925926	0.148148	0.12963	0.212963	0.138889	0.0185185
200	392.72	1.5	11.72	40	1	0	4.96296	2.4484	0	0.185185	0.0740741	0.0462963	0.0277778	0.037037	0.0277778	0.0185185	0.0277778	0.0925926	0.148148	0.12963	0.212963	0.138889	0.0185185
300	389.67	1.5	11.75	40	1	0	4.96296	2.4484	0	0.185185	0.0740741	0.0462963	0.0277778	0.037037	0.0277778	0.0185185	0.0277778	0.0925926	0.148148	0.12963	0.212963	0.138889	0.0185185
400	387.05	1.5	11.79	40	1	0	4.96296	2.4484	0	0.185185	0.0740741	0.0462963	0.0277778	0.037037	0.0277778	0.0185185	0.0277778	0.0925926	0.148148	0.12963	0.212963	0.138889	0.0185185
500	383.81	1.5	11.83	40	1	0	4.96296	2.4484	0	0.185185	0.0740741	0.0462963	0.0277778	0.037037	0.0277778	0.0185185	0.0277778	0.0925926	0.148148	0.12963	0.212963	0.138889	0.0185185
600	380.92	1.5	11.89	40	1	0	4.96296	2.4484	0	0.185185	0.0740741	0.0462963	0.0277778	0.037037	0.0277778	0.0185185	0.0277778	0.0925926	0.148148	0.12963	0.212963	0.138889	0.0185185
700	377.02	1.5	11.95	40	1	0	4.96296	2.4484	0	0.185185	0.0740741	0.0462963	0.0277778	0.037037	0.0277778	0.0185185	0.0277778	0.0925926	0.148148	0.12963	0.212963	0.138889	0.0185185
800	373.05	1.5	12.01	40	1	0	4.96296	2.4484	0	0.185185	0.0740741	0.0462963	0.0277778	0.037037	0.0277778	0.0185185	0.0277778	0.0925926	0.148148	0.12963	0.212963	0.138889	0.0185185
900	370.11	1.5	12.09	40	1	0	4.96296	2.4484	0	0.185185	0.0740741	0.0462963	0.0277778	0.037037	0.0277778	0.0185185	0.0277778	0.0925926	0.148148	0.12963	0.212963	0.138889	0.0185185
1000	366.71	1.5	12.17	40	1	0	4.96296	2.4484	0	0.185185	0.0740741	0.0462963	0.0277778	0.037037	0.0277778	0.0185185	0.0277778	0.0925926	0.148148	0.12963	0.212963	0.138889	0.0185185
1100	362.74	1.5	12.26	40	1	0	4.96296	2.4484	0	0.185185	0.0740741	0.0462963	0.0277778	0.037037	0.0277778	0.0185185	0.0277778	0.0925926	0.148148	0.12963	0.212963	0.138889	0.0185185
1200	358.68	1.5	12.36	40	1	0	4.96296	2.4484	0	0.185185	0.0740741	0.0462963	0.0277778	0.037037	0.0277778	0.0185185	0.0277778	0.0925926	0.148148	0.12963	0.212963	0.138889	0.0185185
1300	354.83	1.5	12.46	40	1	0	4.96296	2.4484	0	0.185185	0.0740741	0.0462963	0.0277778	0.037037	0.0277778	0.0185185	0.0277778	0.0925926	0.148148	0.12963	0.212963	0.138889	0.0185185
1400	350.74	1.5	12.56	40	1	0	4.96296	2.4484	0	0.185185	0.0740741	0.0462963	0.0277778	0.037037	0.0277778	0.0185185	0.0277778	0.0925926	0.148148	0.12963	0.212963	0.138889	0.0185185
1500	346.77	1.5	12.68	40	1	0	4.96296	2.4484	0	0.185185	0.0740741	0.0462963	0.0277778	0.037037	0.0277778	0.0185185	0.0277778	0.0925926	0.148148	0.12963	0.212963	0.138889	0.0185185
1600	342.36	1.5	12.79	40	1	0	4.96296	2.4484	0	0.185185	0.0740741	0.0462963	0.0277778	0.037037	0.0277778	0.0185185	0.0277778	0.0925926	0.148148	0.12963	0.212963	0.138889	0.0185185
1700	337.94	1.5	12.92	40	1	0	4.96296	2.4484	0	0.185185	0.0740741	0.0462963	0.0277778	0.037037	0.0277778	0.0185185	0.0277778	0.0925926	0.148148	0.12963	0.212963	0.138889	0.0185185
1800	332.93	1.5	13.06	40	1	0	4.96296	2.4484	0	0.185185	0.0740741	0.0462963	0.0277778	0.037037	0.0277778	0.0185185	0.0277778	0.0925926	0.148148	0.12963	0.212963	0.138889	0.0185185
1900	327.41	1.5	13.19	40	1	0	4.96296	2.4484	0	0.185185	0.0740741	0.0462963	0.0277778	0.037037	0.0277778	0.0185185	0.0277778	0.0925926	0.148148	0.12963	0.212963	0.138889	0.0185185
2000	321.79	1.5	13.34	40	1	0	4.96296	2.4484	0	0.185185	0.0740741	0.0462963	0.0277778	0.037037	0.0277778	0.0185185	0.0277778	0.0925926	0.148148	0.12963	0.212963	0.138889	0.0185185
2100	315.46	1.5	13.49	40	1	0	4.48042	2.262	0	0.185676	0.0674252	0.0261121	0.0413131	0.0508253	0.0508253	0.0459759	0.0514781	0.0826261	0.141099	0.200783	0.193976	0.0475613	0
2200	309.57	1.5	13.64	40	1	0	4.48042	2.262	0	0.185676	0.0674252	0.0261121	0.0413131	0.0508253	0.0508253	0.0459759	0.0514781	0.0826261	0.141099	0.200783	0.193976	0.0475613	0
2300	304.71	1.5	13.81	40	1	0	4.48042	2.262	0	0.185676	0.0674252	0.0261121	0.0413131	0.0508253	0.0508253	0.0459759	0.0514781	0.0826261	0.141099	0.200783	0.193976	0.0475613	0
2400	300.74	1.5	13.97	40	1	0	4.48042	2.262	0	0.185676	0.0674252	0.0261121	0.0413131	0.0508253	0.0508253	0.0459759	0.0514781	0.0826261	0.141099	0.200783	0.193976	0.0475613	0
2500	296.96	1.5	14.15	40	1	0	4.48042	2.262	0	0.185676	0.0674252	0.0261121	0.0413131	0.0508253	0.0508253	0.0459759	0.0514781	0.0826261	0.141099	0.200783	0.193976	0.0475613	0
2600	294.07	1.5	14.33	40	1	0	4.48042	2.262	0	0.185676	0.0674252	0.0261121	0.0413131	0.0508253	0.0508253	0.0459759	0.0514781	0.0826261	0.141099	0.200783	0.193976	0.0475613	0
2700	290.62	1.5	14.51	40	1	0	4.48042	2.262	0	0.185676	0.0674252	0.0261121	0.0413131	0.0508253	0.0508253	0.0459759	0.0514781	0.0826261	0.141099	0.200783	0.193976	0.0475613	0
2800	287.48	1.5	14.7	40	1	0	4.48042	2.262	0	0.185676	0.0674252	0.0261121	0.0413131	0.0508253	0.0508253	0.0459759	0.0514781	0.0826261	0.141099	0.200783	0.193976	0.0475613	0
2900	284.53	1.5	14.9	40	1	0	4.48042	2.262	0	0.185676	0.0674252	0.0261121	0.0413131	0.0508253	0.0508253	0.0459759	0.0514781	0.0826261	0.141099	0.200783	0.193976	0.0475613	0
3000	281.3	1.5	15.1	40	1	0	4.48042	2.262	0	0.185676	0.0674252	0.0261121	0.0413131	0.0508253	0.0508253	0.0459759	0.0514781	0.0826261	0.141099	0.200783	0.193976	0.0475613	0
3100	278.19	1.5	15.3	40	1	0	4.48042	2.262	0	0.185676	0.0674252	0.0261121	0.0413131	0.0508253	0.0508253	0.0459759	0.0514781	0.0826261	0.141099	0.200783	0.193976	0.0475613	0
3200	275.01	1.5	15.51	40	1	0	4.48042	2.262	0	0.185676	0.0674252	0.0261121	0.0413131	0.0508253	0.0508253	0.0459759	0.0514781	0.0826261	0.141099	0.200783	0.193976	0.0475613	0
3300	272.1	1.5	15.73	40	1	0	4.48042	2.262	0	0.185676	0.0674252	0.0261121	0.0413131	0.0508253	0.0508253	0.0459759	0.0514781	0.0826261	0.141099	0.200783	0.193976	0.0475613	0
3400	269.33	1.5	15.96	40	1	0	4.48042	2.262	0	0.185676	0.0674252	0.0261121	0.0413131	0.0508253	0.0508253	0.0459759	0.0514781	0.0826261	0.141099	0.200783	0.193976	0.0475613	0
3500	266.46	1.5	16.19	40	1	0	4.48042	2.262	0	0.185676	0.0674252	0.0261121	0.0413131	0.0508253	0.0508253	0.0459759	0.0514781	0.0826261	0.141099	0.200783	0.193976	0.0475613	0
3600	263.64	1.5	16.42	40	1	0	4.48042	2.262	0	0.185676	0.0674252	0.0261121	0.0413131	0.0508253	0.0508253	0.0459759	0.0514781	0.0826261	0.141099	0.200783	0.193976	0.0475613	0
3700	260.58	1.5	16.65	40	1	0	4.48042	2.262	0	0.185676	0.0674252	0.0261121	0.0413131	0.0508253	0.0508253	0.0459759	0.0514781	0.0826261	0.141099	0.200783	0.193976	0.0475613	0
3800	257.97	1.5	16.9	40	1	0	4.48042	2.262	0	0.185676	0.0674252	0.0261121	0.0413131	0.0508253	0.0508253	0.0459759	0.0514781	0.0826261	0.141099	0.200783	0.193976	0.0475613	0
3900	254.9	1.5	17.14	40	1	0	4.48042	2.262	0	0.185676	0.0674252	0.0261121	0.0413131	0.0508253	0.0508253	0.0459759	0.0514781	0.0826261	0.141099	0.200783	0.193976	0.0475613	0
4000	252.28	1.5	17.4	40	1	0	4.48042	2.262	0	0.185676	0.0674252	0.0261121	0.0413131	0.0508253	0.0508253	0.0459759	0.0514781	0.0826261	0.141099	0.200783	0.193976	0.0475613	0
4100	249.67	1.5	17.66	40	1	0	4.48042	2.262	0	0.185676	0.0674252	0.0261121	0.0413131	0.0508253	0.0508253	0.0459759	0.0514781	0.0826261	0.141099	0.200783	0.193976	0.0475613	0
4200	247.18	1.5	17.92	40	1	0	4.48042	2.262	0	0.185676	0.0674252	0.0261121	0.0413131	0.0508253	0.0508253	0.0459759	0.0514781	0.0826261	0.141099	0.200783	0.193976	0.0475613	0
4300	244.64	1.5	18.2	40	1	0	4.48042	2.262	0	0.185676	0.0674252	0.0261121	0.0413131	0.0508253	0.0508253	0.0459759	0.0514781	0.0826261	0.141099	0.200783	0.193976	0.0475613	0
4400	242.26	1.5	18.47	40	1	0	4.48042	2.262	0	0.185676	0.0674252	0.0261121	0.0413131	0.0508253	0.0508253	0.0459759	0.0514781	0.0826261	0.141099	0.200783	0.193976	0.0475613	0
4500	240.43	1.5	18.75	40	1	0	4.48042	2.262	0	0.185676	0.0674252	0.0261121	0.0413131	0.0508253	0.0508253	0.0459759	0.0514781	0.0826261	0.141099	0.200783	0.193976	0.0475613	0
4600	238.04	1.5	19.03	40	1	0	4.48042	2.262	0	0.185676	0.0674252	0.0261121	0.0413131	0.0508253	0.0508253	0.0459759	0.0514781	0.0826261	0.141099	0.200783	0.193976	0.0475613	0
4700	235.86	1.5	19.32	40	1	0	4.48042	2.262	0	0.185676	0.0674252	0.0261121	0.0413131	0.0508253	0.0508253	0.0459759	0.0514781	0.0826261	0.141099	0.200783	0.193976	0.0475613	0
4800	233.75	1.5	19.62	40	1	0	4.48042	2.262	0	0.185676	0.0674252	0.0261121	0.0413131	0.0508253	0.0508253	0.0459759	0.0514781	0.0826261	0.141099	0.200783	0.193976	0.0475613	0
4900	231.48	1.5	19.91	40	1	0	4.48042	2.262	0	0.185676	0.0674252	0.0261121	0.0413131	0.0508253	0.0508253	0.0459759	0.0514781	0.0826261	0.141099	0.200783	0.193976	0.0475613	0
5000	229.59	1.5	20.22	40	1	0	4.48042	2.262	0	0.185676	0.0674252	0.0261121	0.0413131	0.0508253	0.0508253	0.0459759	0.0514781	0.0826261	0.141099	0.200783	0.193976	0.0475613	0
5100	227.23	1.5	20.53	40	1	0	4.48042	2.262	0	0.185676	0.0674252	0.0261121	0.0413131	0.0508253	0.0508253	0.0459759	0.0514781	0.0826261	0.141099	0.200783	0.193976	0.0475613	0
5200	225.04	1.5	20.84	40	1	0	4.48042	2.262	0	0.185676	0.0674252	0.0261121	0.0413131	0.0508253	0.0508253	0.0459759	0.0514781	0.0826261	0.141099	0.200783	0.193976	0.0475613	0
5300	222.98	1.5	21.16	40	1	0	4.48042	2.262	0	0.185676	0.0674252	0.0261121	0.0413131	0.0508253	0.0508253	0.0459759	0.0514781	0.0826261	0.141099	0.200783	0.193976	0.0475613	0
5400	220.91	1.5	21.49	40	1	0	4.48042	2.262	0	0.185676	0.0674252	0.0261121	0.0413131	0.0508253	0.0508253	0.0459759	0.0514781	0.0826261	0.141099	0.200783	0.193976	0.0475613	0
5500	218.73	1.5	21.82	40	1	0	4.48042	2.262	0	0.185676	0.0674252	0.0261121	0.0413131	0.0508253	0.0508253	0.0459759	0.0514781	0.0826261	0.141099	0.200783	0.193976	0.0475613	0
5600	216.92	1.5	22.15	40	1	0	4.48042	2.262	0	0.185676	0.0674252	0.0261121	0.0413131	0.0508253	0.0508253	0.0459759	0.0514781	0.0826261	0.141099	0.200783	0.193976	0.0475613	0
5700	215.06	1.5	22.49	40	1	0	4.48042	2.262	0	0.185676	0.0674252	0.0261121	0.0413131	0.0508253	0.0508253	0.0459759	0.0514781	0.0826261	0.141099	0.200783	0.193976	0.0475613	0
5800	213.16	1.5	22.83	40	1	0	4.48042	2.262	0	0.185676	0.0674252	0.0261121	0.0413131	0.0508253	0.0508253	0.0459759	0.0514781	0.0826261	0.141099	0.200783	0.193976	0.0475613	0
5900	211.33	1.5	23.17	40	1	0	4.48042	2.262	0	0.185676	0.0674252	0.0261121	0.0413131	0.0508253	0.0508253	0.0459759	0.0514781	0.0826261	0.141099	0.200783	0.193976	0.0475613	0
6000	209.49	1.5	23.53	40	1	0	4.48042	2.262	0	0.185676	0.0674252	0.0261121	0.0413131	0.0508253	0.0508253	0.0459759	0.0514781	0.0826261	0.141099	0.200783	0.193976	0.0475613	0
6100	208.04	1.5	23.88	40	1	0	4.48042	2.262	0	0.185676	0.0674252	0.0261121	0.0413131	0.0508253	0.0508253	0.0459759	0.0514781	0.0826261	0.141099	0.200783	0.193976	0.0475613	0
6200	206.19	1.5	24.25	40	1	0	4.48042	2.262	0	0.185676	0.0674252	0.0261121	0.0413131	0.0508253	0.0508253	0.0459759	0.0514781	0.0826261	0.141099	0.200783	0.193976	0.0475613	0
6300	204.8	1.5	24.62	40	1	0	4.48042	2.262	0	0.185676	0.0674252	0.0261121	0.0413131	0.0508253	0.0508253	0.0459759	0.0514781	0.0826261	0.141099	0.200783	0.193976	0.0475613	0
6400	202.92	1.5	24.98	40	1	0	4.48042	2.262	0	0.185676	0.0674252	0.0261121	0.0413131	0.0508253	0.0508253	0.0459759	0.0514781	0.0826261	0.141099	0.200783	0.193976	0.0475613	0
6500	201.06	1.5	25.37	40	1	0	4.48042	2.262	0	0.185676	0.0674252	0.0261121	0.0413131	0.0508253	0.0508253	0.0459759	0.0514781	0.0826261	0.141099	0.200783	0.193976	0.0475613	0
6600	199.7	1.5	25.74	40	1	0	4.48042	2.262	0	0.185676	0.0674252	0.0261121	0.0413131	0.0508253	0.0508253	0.0459759	0.0514781	0.0826261	0.141099	0.200783	0.193976	0.0475613	0
6700	198.02	1.5	26.13	40	1	0	4.48042	2.262	0	0.185676	0.0674252	0.0261121	0.0413131	0.0508253	0.0508253	0.0459759	0.0514781	0.0826261	0.141099	0.200783	0.193976	0.0475613	0
6800	196.37	1.5	26.52	40	1	0	4.48042	2.262	0	0.185676	0.0674252	0.0261121	0.0413131	0.0508253	0.0508253	0.0459759	0.0514781	0.0826261	0.141099	0.200783	0.193976	0.0475613	0
6900	195.04	1.5	26.91	40	1	0	4.48042	2.262	0	0.185676	0.0674252	0.0261121	0.0413131	0.0508253	0.0508253	0.0459759	0.0514781	0.0826261	0.141099	0.200783	0.193976	0.0475613	0
7000	193.45	1.5	27.32	40	1	0	4.48042	2.262	0	0.185676	0.0674252	0.0261121	0.0413131	0.0508253	0.0508253	0.0459759	0.0514781	0.0826261	0.141099	0.200783	0.193976	0.0475613	0
7100	191.69	1.5	27.71	40	1	0	4.48042	2.262	0	0.185676	0.0674252	0.0261121	0.0413131	0.0508253	0.0508253	0.0459759	0.0514781	0.0826261	0.141099	0.200783	0.193976	0.0475613	0
7200	190.48	1.5	28.13	40	1	0	4.48042	2.262	0	0.185676	0.0674252	0.0261121	0.0413131	0.0508253	0.0508253	0.0459759	0.0514781	0.0826261	0.141099	0.200783	0.193976	0.0475613	0
7300	189.25	1.5	28.54	40	1	0	4.48042	2.262	0	0.185676	0.0674252	0.0261121	0.0413131	0.0508253	0.0508253	0.0459759	0.0514781	0.0826261	0.141099	0.200783	0.193976	0.0475613	0
7400	187.98	1.5	28.95	40	1	0	4.48042	2.262	0	0.185676	0.0674252	0.0261121	0.0413131	0.0508253	0.0508253	0.0459759	0.0514781	0.0826261	0.141099	0.200783	0.193976	0.0475613	0
7500	186.7	1.5	29.37	40	1	0	4.48042	2.262	0	0.185676	0.0674252	0.0261121	0.0413131	0.0508253	0.0508253	0.0459759	0.0514781	0.0826261	0.141099	0.200783	0.193976	0.0475613	0
7600	185.87	1.5	29.8	40	1	0	4.48042	2.262	0	0.185676	0.0674252	0.0261121	0.0413131	0.0508253	0.0508253	0.0459759	0.0514781	0.0826261	0.141099	0.200783	0.193976	0.0475613	0
7700	185.14	1.5	30.23	40	1	0	4.48042	2.262	0	0.185676	0.0674252	0.0261121	0.0413131	0.0508253	0.0508253	0.0459759	0.0514781	0.0826261	0.141099	0.200783	0.193976	0.0475613	0
7800	184.2	1.5	30.67	40	1	0	4.48042	2.262	0	0.185676	0.0674252	0.0261121	0.0413131	0.0508253	0.0508253	0.0459759	0.0514781	0.0826261	0.141099	0.200783	0.193976	0.0475613	0
7900	183.61	1.5	31.11	40	1	0	4.48042	2.262	0	0.185676	0.0674252	0.0261121	0.0413131	0.0508253	0.0508253	0.0459759	0.0514781	0.0826261	0.141099	0.200783	0.193976	0.0475613	0
8000	183.15	1.5	31.56	40	1	0	4.48042	2.262	0	0.185676	0.0674252	0.0261121	0.0413131	0.0508253	0.0508253	0.0459759	0.0514781	0.0826261	0.141099	0.200783	0.193976	0.0475613	0
8100	182.84	1.5	32	40	1	0	4.48042	2.262	0	0.185676	0.0674252	0.0261121	0.0413131	0.0508253	0.0508253	0.0459759	0.0514781	0.0826261	0.141099	0.200783	0.193976	0.0475613	0
8200	182.25	1.5	32.46	40	1	0	4.48042	2.262	0	0.185676	0.0674252	0.0261121	0.0413131	0.0508253	0.0508253	0.0459759	0.0514781	0.0826261	0.141099	0.200783	0.193976	0.0475613	0

